time (NSec) 	Kinova Tip Position (t_x) 	t_y 	t_z 	Kinova Tip Angle (theta_x) 	Kinova Tip Angle (theta_y) 	Kinova Tip Angle (theta_z) 	Kinova Joint Angle (j1) 	(j2) 	(j3) 	(j4) 	Kinova Joint Angle (j5) 	(j6) 	(j7)
0.0253727 	-0.00382993 	-0.485722 	-0.24323 	1.76551 	0.010253 	-3.10831 	90.0527 	63.1248 	-0.619238 	268.867 	360.844 	285.227 	539.185 	
0.0456867 	-0.00382993 	-0.485722 	-0.24323 	1.76551 	0.010253 	-3.10831 	90.0528 	63.1253 	-0.619434 	268.867 	360.844 	285.227 	539.185 	
0.0884187 	-0.00383138 	-0.486011 	-0.243024 	1.76482 	0.0102489 	-3.10866 	90.0527 	63.128 	-0.619336 	268.867 	360.844 	285.227 	539.186 	
0.190491 	-0.00381493 	-0.486901 	-0.241233 	1.7654 	0.0103148 	-3.11668 	90.0528 	63.3812 	-0.619531 	269.08 	360.844 	285.227 	539.417 	
0.292938 	-0.00376783 	-0.490098 	-0.234831 	1.76539 	0.0105086 	-3.12535 	90.0528 	64.2762 	-0.619434 	269.91 	360.844 	285.227 	539.683 	
0.395567 	-0.00372142 	-0.493184 	-0.228375 	1.76539 	0.0107033 	-3.1253 	90.0529 	65.3456 	-0.619043 	270.987 	360.844 	285.227 	539.693 	
0.498688 	-0.00367573 	-0.496157 	-0.221866 	1.76539 	0.0108989 	-3.12525 	90.0527 	66.3438 	-0.619434 	271.976 	360.844 	285.227 	539.696 	
0.601452 	-0.00363075 	-0.499015 	-0.215306 	1.76539 	0.0110953 	-3.12521 	90.0527 	67.3185 	-0.619531 	272.975 	360.844 	285.227 	539.697 	
0.703931 	-0.00358652 	-0.501759 	-0.208697 	1.76539 	0.0112924 	-3.12517 	90.0528 	68.3194 	-0.619336 	273.969 	360.844 	285.227 	539.698 	
0.806866 	-0.00354304 	-0.504386 	-0.202042 	1.76539 	0.0114901 	-3.12513 	90.0529 	69.4404 	-0.619238 	275.065 	360.844 	285.227 	539.699 	
0.909675 	-0.00350033 	-0.506898 	-0.195341 	1.76539 	0.0116885 	-3.1251 	90.0528 	70.467 	-0.619336 	276.073 	360.844 	285.227 	539.7 	
1.01233 	-0.00345839 	-0.509291 	-0.188598 	1.76539 	0.0118874 	-3.12507 	90.0527 	71.4621 	-0.619434 	277.072 	360.844 	285.227 	539.7 	
1.11482 	-0.00341725 	-0.511567 	-0.181814 	1.76539 	0.0120868 	-3.12505 	90.0528 	72.4702 	-0.619434 	278.069 	360.844 	285.227 	539.701 	
1.2185 	-0.00337691 	-0.513724 	-0.174991 	1.76539 	0.0122866 	-3.12502 	90.0528 	73.5834 	-0.619434 	279.168 	360.844 	285.227 	539.701 	
1.3214 	-0.00333738 	-0.515762 	-0.168132 	1.76539 	0.0124868 	-3.125 	90.0529 	74.5713 	-0.619336 	280.182 	360.844 	285.227 	539.702 	
1.42392 	-0.00329869 	-0.517679 	-0.161238 	1.76539 	0.0126872 	-3.12499 	90.053 	75.5826 	-0.61875 	281.18 	360.844 	285.227 	539.702 	
1.52679 	-0.00326083 	-0.519477 	-0.154311 	1.76539 	0.0128879 	-3.12498 	90.053 	76.6741 	-0.618945 	282.278 	360.844 	285.227 	539.702 	
1.62962 	-0.00322383 	-0.521152 	-0.147355 	1.76539 	0.0130888 	-3.12497 	90.0528 	77.6819 	-0.619238 	283.272 	360.844 	285.227 	539.702 	
1.73207 	-0.00318769 	-0.522707 	-0.14037 	1.76539 	0.0132898 	-3.12496 	90.0525 	78.7014 	-0.619629 	284.283 	360.844 	285.227 	539.702 	
1.83495 	-0.00315242 	-0.524138 	-0.133359 	1.76539 	0.0134908 	-3.12496 	90.0526 	79.7139 	-0.619434 	285.282 	360.844 	285.227 	539.703 	
1.94135 	-0.00311804 	-0.525448 	-0.126324 	1.76539 	0.0136919 	-3.12496 	90.0528 	80.7951 	-0.619336 	286.379 	360.844 	285.227 	539.703 	
2.04382 	-0.00308455 	-0.526634 	-0.119268 	1.76539 	0.0138929 	-3.12497 	90.0529 	81.7747 	-0.619043 	287.385 	360.844 	285.227 	539.703 	
2.14668 	-0.00305197 	-0.527697 	-0.112191 	1.76539 	0.0140937 	-3.12498 	90.053 	82.8884 	-0.619043 	288.478 	360.844 	285.227 	539.703 	
2.25259 	-0.0030203 	-0.528637 	-0.105098 	1.76539 	0.0142944 	-3.12499 	90.0529 	83.865 	-0.619043 	289.474 	360.844 	285.227 	539.703 	
2.35681 	-0.00298956 	-0.529452 	-0.0979889 	1.76539 	0.0144948 	-3.12501 	90.0529 	84.9514 	-0.619043 	290.578 	360.844 	285.227 	539.703 	
2.45882 	-0.00295976 	-0.530144 	-0.0908666 	1.76539 	0.0146948 	-3.12503 	90.0529 	85.9618 	-0.619141 	291.578 	360.844 	285.227 	539.703 	
2.56163 	-0.00290298 	-0.531153 	-0.0765915 	1.76539 	0.0150938 	-3.12508 	90.0526 	86.9849 	-0.619531 	292.579 	360.844 	285.227 	539.703 	
2.66365 	-0.00287603 	-0.53147 	-0.069443 	1.7654 	0.0152926 	-3.12511 	90.0526 	87.9932 	-0.619629 	293.589 	360.844 	285.227 	539.704 	
2.76571 	-0.00285005 	-0.531663 	-0.06229 	1.7654 	0.0154909 	-3.12514 	90.0528 	89.096 	-0.619531 	294.583 	360.844 	285.227 	539.704 	
2.86773 	-0.00282504 	-0.531731 	-0.0551347 	1.7654 	0.0156885 	-3.12518 	90.0528 	90.0874 	-0.619336 	295.676 	360.844 	285.227 	539.704 	
2.97461 	-0.00280102 	-0.531674 	-0.0479793 	1.7654 	0.0158854 	-3.12522 	90.0529 	91.1013 	-0.619141 	296.677 	360.844 	285.227 	539.704 	
3.07648 	-0.00277799 	-0.531492 	-0.040826 	1.7654 	0.0160816 	-3.12526 	90.0528 	92.1791 	-0.619141 	297.783 	360.844 	285.227 	539.704 	
3.17857 	-0.00275596 	-0.531185 	-0.0336768 	1.7654 	0.016277 	-3.12531 	90.0529 	93.1879 	-0.619238 	298.779 	360.844 	285.227 	539.704 	
3.2805 	-0.00273493 	-0.530754 	-0.0265343 	1.7654 	0.0164716 	-3.12536 	90.0528 	94.1867 	-0.619043 	299.777 	360.844 	285.227 	539.704 	
3.38252 	-0.00271492 	-0.530198 	-0.0194003 	1.7654 	0.0166652 	-3.12541 	90.0529 	95.1653 	-0.619336 	300.781 	360.844 	285.227 	539.704 	
3.48473 	-0.00269592 	-0.529518 	-0.0122771 	1.7654 	0.0168579 	-3.12547 	90.0528 	96.1703 	-0.619336 	301.78 	360.844 	285.227 	539.704 	
3.58651 	-0.00267795 	-0.528713 	-0.00516681 	1.7654 	0.0170495 	-3.12553 	90.0527 	97.2565 	-0.619238 	302.884 	360.844 	285.227 	539.704 	
3.68857 	-0.00266101 	-0.527784 	0.00192839 	1.76541 	0.0172401 	-3.1256 	90.0528 	98.2751 	-0.619238 	303.883 	360.844 	285.227 	539.704 	
3.79064 	-0.0026451 	-0.526732 	0.00900608 	1.76541 	0.0174295 	-3.12566 	90.0527 	99.3097 	-0.619336 	304.884 	360.844 	285.227 	539.704 	
3.8926 	-0.00263023 	-0.525556 	0.0160646 	1.76541 	0.0176176 	-3.12573 	90.0528 	100.322 	-0.619238 	305.886 	360.844 	285.227 	539.704 	
3.99483 	-0.00261641 	-0.524257 	0.0231013 	1.76541 	0.0178046 	-3.12581 	90.0528 	101.258 	-0.619238 	306.88 	360.844 	285.227 	539.704 	
4.09758 	-0.00260363 	-0.522836 	0.0301144 	1.76541 	0.0179902 	-3.12589 	90.0527 	102.388 	-0.619531 	307.987 	360.844 	285.227 	539.704 	
4.19954 	-0.0025919 	-0.521293 	0.0371016 	1.76541 	0.0181744 	-3.12597 	90.0528 	103.362 	-0.619238 	308.978 	360.844 	285.227 	539.704 	
4.30302 	-0.00258123 	-0.519627 	0.0440608 	1.76541 	0.0183572 	-3.12605 	90.0528 	104.337 	-0.619434 	309.982 	360.844 	285.227 	539.705 	
4.40575 	-0.00257162 	-0.517841 	0.0509898 	1.76542 	0.0185385 	-3.12614 	90.0529 	105.439 	-0.619141 	310.977 	360.844 	285.226 	539.705 	
4.50754 	-0.00256307 	-0.515934 	0.0578866 	1.76542 	0.0187182 	-3.12623 	90.0528 	106.466 	-0.619434 	312.081 	360.844 	285.227 	539.705 	
4.60985 	-0.00255559 	-0.513907 	0.0647492 	1.76542 	0.0188964 	-3.12632 	90.0528 	107.503 	-0.619141 	313.082 	360.844 	285.227 	539.705 	
4.71304 	-0.00254917 	-0.51176 	0.0715753 	1.76542 	0.0190729 	-3.12642 	90.0527 	108.487 	-0.619336 	314.093 	360.844 	285.227 	539.705 	
4.81586 	-0.00254382 	-0.509495 	0.0783628 	1.76542 	0.0192477 	-3.12652 	90.0526 	109.574 	-0.619434 	315.08 	360.844 	285.227 	539.705 	
4.91938 	-0.00253954 	-0.507111 	0.0851098 	1.76543 	0.0194207 	-3.12662 	90.0528 	110.552 	-0.619238 	316.184 	360.844 	285.227 	539.705 	
5.02208 	-0.00253633 	-0.50461 	0.0918142 	1.76543 	0.0195919 	-3.12672 	90.0529 	111.542 	-0.619336 	317.096 	360.844 	285.227 	539.705 	
5.12525 	-0.00253817 	-0.505635 	0.0998389 	1.75438 	0.0196514 	-3.12678 	90.0529 	112.538 	-0.619238 	317.31 	360.844 	285.227 	539.705 	
5.22802 	-0.00254235 	-0.508623 	0.10869 	1.73693 	0.0196472 	-3.1268 	90.0528 	113.66 	-0.619434 	317.355 	360.844 	285.227 	539.705 	
5.33122 	-0.0025463 	-0.511457 	0.117592 	1.71948 	0.0196434 	-3.12683 	90.0528 	114.643 	-0.619336 	317.369 	360.844 	285.227 	539.705 	
5.43441 	-0.00255004 	-0.514135 	0.126542 	1.70203 	0.01964 	-3.12685 	90.0528 	115.661 	-0.619336 	317.383 	360.844 	285.227 	539.705 	
5.47172 	-0.00255356 	-0.516656 	0.135538 	1.68457 	0.019637 	-3.12688 	90.0529 	116.06 	-0.619238 	317.385 	360.844 	285.227 	539.705 	
5.57532 	-0.00255949 	-0.521277 	0.143925 	1.66223 	0.0195488 	-3.12685 	90.0528 	116.852 	-0.619336 	317.168 	360.844 	285.226 	539.705 	
5.67833 	-0.00256858 	-0.527873 	0.151283 	1.63605 	0.0193744 	-3.12678 	90.0529 	117.556 	-0.619238 	316.256 	360.844 	285.227 	539.705 	
5.78088 	-0.00257726 	-0.533291 	0.154181 	1.6186 	0.0191998 	-3.12671 	90.0529 	117.638 	-0.619434 	315.28 	360.844 	285.227 	539.705 	
5.88274 	-0.00258711 	-0.538657 	0.157173 	1.60114 	0.0190238 	-3.12663 	90.0529 	117.659 	-0.618945 	314.284 	360.844 	285.227 	539.705 	
5.98499 	-0.00259811 	-0.543971 	0.160258 	1.58369 	0.0188465 	-3.12656 	90.0528 	117.678 	-0.619531 	313.266 	360.844 	285.226 	539.705 	
6.08793 	-0.00261028 	-0.549229 	0.163436 	1.56623 	0.0186681 	-3.12649 	90.053 	117.697 	-0.618945 	312.176 	360.844 	285.227 	539.705 	
6.1909 	-0.00262359 	-0.554431 	0.166705 	1.54878 	0.0184884 	-3.12643 	90.0529 	117.706 	-0.619336 	311.17 	360.844 	285.226 	539.705 	
6.29299 	-0.00263805 	-0.559576 	0.170064 	1.53132 	0.0183077 	-3.12636 	90.0528 	117.713 	-0.619336 	310.174 	360.844 	285.227 	539.705 	
6.39595 	-0.00265366 	-0.564661 	0.173512 	1.51387 	0.0181259 	-3.12631 	90.0528 	117.715 	-0.619434 	309.159 	360.844 	285.227 	539.705 	
6.49912 	-0.00267041 	-0.569685 	0.177049 	1.49642 	0.0179431 	-3.12625 	90.0529 	117.72 	-0.619434 	308.059 	360.844 	285.227 	539.706 	
6.60229 	-0.00268829 	-0.574647 	0.180673 	1.47896 	0.0177593 	-3.1262 	90.0528 	117.727 	-0.619434 	307.057 	360.844 	285.227 	539.706 	
6.70483 	-0.00270731 	-0.579545 	0.184383 	1.46151 	0.0175747 	-3.12615 	90.0529 	117.73 	-0.619141 	306.046 	360.844 	285.227 	539.706 	
6.80816 	-0.00272744 	-0.584377 	0.188178 	1.44405 	0.0173892 	-3.1261 	90.0529 	117.729 	-0.619336 	304.938 	360.844 	285.227 	539.706 	
6.91118 	-0.00274869 	-0.589142 	0.192056 	1.4266 	0.0172029 	-3.12606 	90.0528 	117.742 	-0.619336 	303.944 	360.844 	285.227 	539.706 	
7.01408 	-0.00277106 	-0.593839 	0.196017 	1.40914 	0.017016 	-3.12602 	90.0528 	117.742 	-0.619531 	302.931 	360.844 	285.227 	539.706 	
7.11673 	-0.00279453 	-0.598466 	0.20006 	1.39169 	0.0168283 	-3.12598 	90.0528 	117.743 	-0.619434 	301.822 	360.844 	285.227 	539.706 	
7.22024 	-0.00281909 	-0.603022 	0.204182 	1.37424 	0.0166401 	-3.12595 	90.0528 	117.741 	-0.619434 	300.828 	360.844 	285.227 	539.706 	
7.32178 	-0.00284475 	-0.607505 	0.208384 	1.35678 	0.0164513 	-3.12592 	90.0528 	117.748 	-0.619531 	299.823 	360.844 	285.227 	539.706 	
7.42421 	-0.00287148 	-0.611914 	0.212663 	1.33933 	0.016262 	-3.12589 	90.0528 	117.758 	-0.619336 	298.827 	360.844 	285.227 	539.706 	
7.52724 	-0.00289929 	-0.616247 	0.217018 	1.32188 	0.0160723 	-3.12587 	90.0528 	117.763 	-0.619434 	297.714 	360.844 	285.226 	539.706 	
7.63026 	-0.00292817 	-0.620504 	0.221449 	1.30442 	0.0158822 	-3.12585 	90.0529 	117.774 	-0.619336 	296.715 	360.844 	285.227 	539.706 	
7.73288 	-0.0029581 	-0.624683 	0.225953 	1.28697 	0.0156918 	-3.12583 	90.0528 	117.773 	-0.619336 	295.712 	360.844 	285.227 	539.706 	
7.84176 	-0.00298908 	-0.628783 	0.230529 	1.26952 	0.0155011 	-3.12582 	90.0529 	117.774 	-0.619336 	294.602 	360.844 	285.227 	539.706 	
7.94397 	-0.00302435 	-0.6332 	0.235644 	1.25032 	0.0152911 	-3.12581 	90.0528 	117.774 	-0.619336 	293.6 	360.844 	285.227 	539.706 	
8.04644 	-0.00305414 	-0.63674 	0.239892 	1.23461 	0.0151192 	-3.1258 	90.0529 	117.774 	-0.619434 	292.592 	360.844 	285.226 	539.706 	
8.15095 	-0.00312327 	-0.644365 	0.249528 	1.1997 	0.014737 	-3.1258 	90.0527 	117.787 	-0.619531 	291.489 	360.844 	285.226 	539.706 	
8.25405 	-0.00315933 	-0.64805 	0.254444 	1.18225 	0.0145459 	-3.1258 	90.0529 	117.792 	-0.619238 	290.471 	360.844 	285.227 	539.706 	
8.35684 	-0.00319639 	-0.651649 	0.259424 	1.1648 	0.0143549 	-3.12581 	90.0524 	117.794 	-0.619922 	289.366 	360.844 	285.226 	539.706 	
8.45876 	-0.00323441 	-0.655161 	0.264466 	1.14734 	0.014164 	-3.12582 	90.0527 	117.794 	-0.619141 	288.365 	360.844 	285.226 	539.706 	
8.56089 	-0.0032734 	-0.658584 	0.269568 	1.12989 	0.0139733 	-3.12583 	90.053 	117.794 	-0.619238 	287.368 	360.844 	285.226 	539.706 	
8.66285 	-0.00331334 	-0.661917 	0.274729 	1.11244 	0.0137829 	-3.12585 	90.0528 	117.791 	-0.619434 	286.369 	360.844 	285.226 	539.706 	
8.76502 	-0.00335422 	-0.66516 	0.279948 	1.09498 	0.0135929 	-3.12587 	90.0528 	117.794 	-0.619531 	285.365 	360.844 	285.226 	539.706 	
8.86788 	-0.00339603 	-0.668311 	0.285222 	1.07753 	0.0134032 	-3.12589 	90.0527 	117.859 	-0.619434 	284.236 	360.844 	285.227 	539.706 	
8.97522 	-0.00343875 	-0.67137 	0.290551 	1.06008 	0.0132139 	-3.12592 	90.0526 	117.813 	-0.619727 	283.251 	360.844 	285.224 	539.706 	
9.0778 	-0.00348237 	-0.674335 	0.295932 	1.04262 	0.0130252 	-3.12595 	90.0522 	117.823 	-0.620117 	282.138 	360.844 	285.224 	539.706 	
9.18001 	-0.00352688 	-0.677206 	0.301364 	1.02517 	0.0128369 	-3.12598 	90.0529 	117.752 	-0.619238 	281.134 	360.844 	285.191 	539.706 	
9.28282 	-0.00357226 	-0.679981 	0.306845 	1.00772 	0.0126494 	-3.12602 	90.0526 	117.826 	-0.619727 	280.123 	360.844 	285.183 	539.706 	
9.38491 	-0.0036185 	-0.682661 	0.312374 	0.990265 	0.0124624 	-3.12606 	90.0529 	117.829 	-0.619238 	279.144 	360.844 	285.185 	539.706 	
9.48681 	-0.00366559 	-0.685243 	0.317949 	0.972813 	0.0122762 	-3.1261 	90.0529 	117.954 	-0.619336 	278.002 	360.844 	285.226 	539.706 	
9.58909 	-0.00371351 	-0.687728 	0.323568 	0.95536 	0.0120908 	-3.12615 	90.0529 	117.847 	-0.619434 	277.027 	360.844 	285.208 	539.706 	
9.69111 	-0.00376224 	-0.690115 	0.32923 	0.937907 	0.0119062 	-3.1262 	90.052 	117.824 	-0.619922 	276.03 	360.844 	285.206 	539.706 	
9.79427 	-0.00381178 	-0.692402 	0.334932 	0.920455 	0.0117225 	-3.12625 	90.0528 	117.833 	-0.619531 	275.017 	360.844 	285.207 	539.706 	
9.89739 	-0.00386211 	-0.694589 	0.340674 	0.903002 	0.0115397 	-3.12631 	90.0526 	117.836 	-0.619824 	273.917 	360.844 	285.207 	539.706 	
10.0001 	-0.00391321 	-0.696676 	0.346452 	0.885549 	0.011358 	-3.12637 	90.0526 	117.837 	-0.619629 	272.905 	360.844 	285.207 	539.706 	
10.1031 	-0.00396506 	-0.698662 	0.352267 	0.868096 	0.0111773 	-3.12643 	90.0526 	117.838 	-0.619629 	271.903 	360.844 	285.207 	539.706 	
10.206 	-0.00401765 	-0.700546 	0.358114 	0.850644 	0.0109978 	-3.1265 	90.0527 	117.839 	-0.619629 	270.899 	360.844 	285.207 	539.706 	
10.3094 	-0.00407097 	-0.702327 	0.363995 	0.833191 	0.0108194 	-3.12656 	90.0526 	117.839 	-0.619531 	269.802 	360.844 	285.207 	539.706 	
10.4121 	-0.004125 	-0.704006 	0.369905 	0.815739 	0.0106422 	-3.12664 	90.0529 	117.842 	-0.619336 	268.792 	360.844 	285.207 	539.706 	
10.5151 	-0.00417971 	-0.705581 	0.375843 	0.798287 	0.0104663 	-3.12671 	90.0527 	117.841 	-0.619629 	267.799 	360.844 	285.206 	539.706 	
10.6181 	-0.00423511 	-0.707052 	0.381808 	0.780834 	0.0102917 	-3.12679 	90.0528 	117.842 	-0.619531 	266.695 	360.844 	285.206 	539.706 	
10.7218 	-0.00429116 	-0.708419 	0.387798 	0.763381 	0.0101185 	-3.12687 	90.0527 	117.846 	-0.619531 	265.69 	360.844 	285.206 	539.706 	
10.8244 	-0.00434785 	-0.709681 	0.393811 	0.745929 	0.0099468 	-3.12695 	90.0527 	117.852 	-0.619629 	264.683 	360.844 	285.207 	539.706 	
10.927 	-0.00440517 	-0.710838 	0.399845 	0.728477 	0.00977655 	-3.12704 	90.0527 	117.853 	-0.619531 	263.58 	360.844 	285.206 	539.706 	
11.0295 	-0.00446309 	-0.71189 	0.405899 	0.711024 	0.00960784 	-3.12713 	90.0527 	117.853 	-0.619531 	262.587 	360.844 	285.206 	539.706 	
11.1319 	-0.0045216 	-0.712835 	0.411969 	0.693572 	0.00944073 	-3.12722 	90.0526 	117.855 	-0.619531 	261.572 	360.844 	285.206 	539.707 	
11.2342 	-0.00458068 	-0.713675 	0.418055 	0.676119 	0.00927526 	-3.12732 	90.0525 	117.855 	-0.619727 	260.58 	360.844 	285.206 	539.706 	
11.3402 	-0.00464032 	-0.714408 	0.424155 	0.658667 	0.00911148 	-3.12742 	90.0526 	117.856 	-0.619629 	259.475 	360.844 	285.206 	539.706 	
11.4432 	-0.00470048 	-0.715035 	0.430267 	0.641214 	0.00894945 	-3.12752 	90.0526 	117.856 	-0.619531 	258.47 	360.844 	285.205 	539.706 	
11.5462 	-0.00476117 	-0.715555 	0.436389 	0.623762 	0.00878921 	-3.12762 	90.0526 	117.857 	-0.619727 	257.471 	360.844 	285.204 	539.707 	
11.6494 	-0.00482235 	-0.715968 	0.442519 	0.60631 	0.00863081 	-3.12773 	90.0527 	117.862 	-0.619531 	256.364 	360.844 	285.204 	539.706 	
11.7531 	-0.00488402 	-0.716274 	0.448655 	0.588857 	0.0084743 	-3.12784 	90.0526 	117.865 	-0.619531 	255.371 	360.844 	285.203 	539.707 	
11.857 	-0.00494614 	-0.716473 	0.454796 	0.571405 	0.00831974 	-3.12795 	90.0526 	117.873 	-0.619531 	254.266 	360.844 	285.199 	539.706 	
11.9592 	-0.00507169 	-0.716549 	0.467083 	0.5365 	0.0080166 	-3.12819 	90.0527 	117.879 	-0.619434 	253.252 	360.844 	285.199 	539.707 	
12.0609 	-0.00513508 	-0.716426 	0.473226 	0.519048 	0.00786813 	-3.12831 	90.0527 	117.879 	-0.619434 	252.254 	360.844 	285.196 	539.707 	
12.1629 	-0.00519885 	-0.716195 	0.479365 	0.501595 	0.00772178 	-3.12843 	90.0526 	117.88 	-0.619531 	251.262 	360.844 	285.194 	539.707 	
12.265 	-0.00526299 	-0.715858 	0.4855 	0.484143 	0.00757761 	-3.12855 	90.0527 	117.88 	-0.619531 	250.255 	360.844 	285.193 	539.707 	
12.367 	-0.00532747 	-0.715414 	0.491628 	0.46669 	0.00743563 	-3.12868 	90.0527 	117.88 	-0.619531 	249.159 	360.844 	285.192 	539.707 	
12.475 	-0.00539228 	-0.714863 	0.497746 	0.449238 	0.00729592 	-3.12881 	90.0525 	117.881 	-0.619629 	248.155 	360.844 	285.19 	539.706 	
12.577 	-0.0054574 	-0.714205 	0.503855 	0.431786 	0.0071585 	-3.12894 	90.0527 	117.881 	-0.619434 	247.058 	360.844 	285.187 	539.707 	
12.679 	-0.0055228 	-0.713441 	0.509951 	0.414334 	0.00702342 	-3.12908 	90.0526 	117.88 	-0.619629 	246.065 	360.844 	285.18 	539.707 	
12.7811 	-0.00558846 	-0.71257 	0.516033 	0.396881 	0.00689072 	-3.12922 	90.0527 	117.883 	-0.619531 	245.051 	360.844 	285.178 	539.707 	
12.883 	-0.00565437 	-0.711593 	0.522099 	0.379429 	0.00676045 	-3.12936 	90.0527 	117.883 	-0.619531 	244.048 	360.844 	285.174 	539.707 	
12.9856 	-0.00572051 	-0.710511 	0.528146 	0.361977 	0.00663263 	-3.1295 	90.0527 	117.883 	-0.619531 	243.055 	360.844 	285.163 	539.707 	
13.0881 	-0.00578686 	-0.709323 	0.534174 	0.344524 	0.00650732 	-3.12964 	90.0526 	117.883 	-0.619531 	241.954 	360.844 	285.158 	539.707 	
13.1912 	-0.00585338 	-0.70803 	0.540181 	0.327072 	0.00638454 	-3.12979 	90.0526 	117.884 	-0.619629 	240.938 	360.844 	285.157 	539.707 	
13.2943 	-0.00592008 	-0.706633 	0.546163 	0.309619 	0.00626433 	-3.12994 	90.0527 	117.884 	-0.619434 	239.946 	360.844 	285.154 	539.707 	
13.3972 	-0.00598691 	-0.705131 	0.552121 	0.292167 	0.00614674 	-3.13009 	90.0526 	117.884 	-0.619531 	238.851 	360.844 	285.149 	539.707 	
13.5006 	-0.00605388 	-0.703526 	0.558051 	0.274714 	0.00603179 	-3.13024 	90.0526 	117.887 	-0.619531 	237.846 	360.844 	285.147 	539.707 	
13.6032 	-0.00612094 	-0.701817 	0.563953 	0.257262 	0.00591953 	-3.1304 	90.0528 	117.889 	-0.619531 	236.837 	360.844 	285.146 	539.707 	
13.7063 	-0.00618809 	-0.700005 	0.569823 	0.23981 	0.00580999 	-3.13055 	90.0527 	117.889 	-0.619531 	235.841 	360.844 	285.144 	539.707 	
13.8096 	-0.00625531 	-0.698092 	0.575661 	0.222357 	0.00570319 	-3.13071 	90.0527 	117.889 	-0.619531 	234.747 	360.844 	285.142 	539.707 	
13.9123 	-0.00632256 	-0.696077 	0.581465 	0.204905 	0.00559918 	-3.13087 	90.0527 	117.889 	-0.619434 	233.734 	360.844 	285.14 	539.707 	
14.0152 	-0.00638984 	-0.69396 	0.587233 	0.187453 	0.00549798 	-3.13103 	90.0527 	117.886 	-0.619629 	232.746 	360.844 	285.139 	539.707 	
14.1185 	-0.00645712 	-0.691744 	0.592963 	0.17 	0.00539962 	-3.1312 	90.0526 	117.89 	-0.619531 	231.641 	360.844 	285.137 	539.707 	
14.2214 	-0.00652438 	-0.689427 	0.598654 	0.152548 	0.00530414 	-3.13136 	90.0524 	117.906 	-0.619531 	230.623 	360.844 	285.133 	539.707 	
14.3244 	-0.0065916 	-0.687012 	0.604303 	0.135095 	0.00521157 	-3.13153 	90.0528 	117.907 	-0.619434 	229.645 	360.844 	285.13 	539.707 	
